Time [d]	Moisture mass integral [kg/m2]	T_left [C]	RH_left [%]	pv_left [Pa]	T_right [C]	RH_right [%]	pv_right [Pa]
0	0.143799	18	80	1650.23	18	80	1650.23
0.00694444	0.140587	18.0871	80.1671	1662.76	21.7841	73.2254	1909.89
0.0138889	0.137336	18.2243	80.4895	1683.9	22.4101	69.7656	1890.43
0.0208333	0.134424	18.338	80.7454	1701.37	22.7752	67.3839	1866.83
0.0277778	0.131878	18.4307	80.885	1714.24	23.0375	65.4606	1842.59
0.0347222	0.12966	18.5085	80.8999	1722.93	23.2346	63.9683	1822.17
0.0416667	0.127736	18.5726	80.7794	1727.3	23.3756	62.9043	1807.19
0.0486111	0.125949	18.6298	80.5854	1729.33	23.492	62.0315	1794.67
0.0555556	0.12434	18.6763	80.2962	1728.14	23.5808	61.3628	1784.85
0.0625	0.122862	18.7127	79.9381	1724.37	23.65	60.8405	1777.06
0.0694444	0.121498	18.7385	79.5298	1718.33	23.7058	60.4094	1770.4
0.0763889	0.120227	18.754	79.087	1710.41	23.7509	60.0505	1764.67
0.0833333	0.119063	18.7557	78.6259	1700.63	23.7868	59.7464	1759.52
0.0902778	0.117949	18.7507	78.1479	1689.76	23.8182	59.4696	1754.68
0.0972222	0.116918	18.734	77.6687	1677.64	23.8435	59.2247	1750.12
0.104167	0.115972	18.705	77.2008	1664.52	23.8635	59.008	1745.82
0.111111	0.11509	18.667	76.7432	1650.72	23.8797	58.8103	1741.66
0.118056	0.114269	18.6204	76.299	1636.39	23.8924	58.6303	1737.65
0.125	0.113508	18.566	75.8722	1621.69	23.9018	58.4664	1733.79
0.131944	0.112804	18.5042	75.4653	1606.76	23.9084	58.3172	1730.04
0.138889	0.112153	18.4357	75.0807	1591.73	23.9122	58.1825	1726.44
0.145833	0.111555	18.3612	74.7192	1576.67	23.9135	58.061	1722.97
0.152778	0.111005	18.2811	74.3839	1561.73	23.9124	57.9531	1719.65
0.159722	0.110503	18.196	74.0733	1546.92	23.909	57.8575	1716.47
0.166667	0.110045	18.1066	73.786	1532.28	23.9036	57.7742	1713.44
0.173611	0.109629	18.0131	73.5213	1517.84	23.8962	57.7025	1710.55
0.180556	0.109254	17.9162	73.2812	1503.68	23.887	57.6418	1707.8
0.1875	0.108915	17.8161	73.0644	1489.82	23.8761	57.5918	1705.21
0.194444	0.108613	17.7134	72.869	1476.25	23.8637	57.5516	1702.74
0.201389	0.108343	17.6084	72.6946	1462.99	23.8498	57.521	1700.42
0.208333	0.108105	17.5014	72.5401	1450.05	23.8346	57.4994	1698.23
0.215278	0.107896	17.3927	72.4036	1437.42	23.8182	57.4859	1696.16
0.222222	0.107714	17.2827	72.2842	1425.1	23.8008	57.4805	1694.22
0.229167	0.107559	17.1715	72.1803	1413.07	23.7823	57.4825	1692.39
0.236111	0.107427	17.0594	72.0913	1401.34	23.7629	57.4913	1690.68
0.243056	0.107318	16.9467	72.0163	1389.91	23.7427	57.5065	1689.07
0.25	0.10723	16.8334	71.9539	1378.76	23.7218	57.5276	1687.57
0.256944	0.107161	16.7199	71.903	1367.89	23.7002	57.5542	1686.15
0.263889	0.107111	16.6062	71.8628	1357.28	23.678	57.5861	1684.84
0.270833	0.107077	16.4926	71.8328	1346.94	23.6553	57.6227	1683.6
0.277778	0.10706	16.3791	71.812	1336.85	23.6321	57.6637	1682.45
0.284722	0.107057	16.2658	71.7997	1327	23.6086	57.7087	1681.38
0.291667	0.107068	16.1529	71.7953	1317.4	23.5847	57.7575	1680.38
0.298611	0.107091	16.0405	71.7983	1308.03	23.5605	57.8097	1679.45
0.305556	0.107127	15.9286	71.808	1298.88	23.5361	57.865	1678.58
0.3125	0.107173	15.8173	71.8239	1289.96	23.5115	57.9232	1677.78
0.319444	0.107229	15.7068	71.8456	1281.25	23.4867	57.984	1677.03
0.326389	0.107294	15.5969	71.8723	1272.74	23.4617	58.0472	1676.34
0.333333	0.107368	15.4879	71.904	1264.43	23.4367	58.1127	1675.69
0.340278	0.107449	15.3798	71.9402	1256.31	23.4116	58.1802	1675.1
0.347222	0.107538	15.2726	71.9805	1248.38	23.3865	58.2495	1674.56
0.354167	0.107633	15.1663	72.0244	1240.64	23.3613	58.3206	1674.06
0.361111	0.107734	15.0609	72.0717	1233.07	23.3362	58.3932	1673.6
0.368056	0.10784	14.9566	72.122	1225.66	23.3111	58.4671	1673.18
0.375	0.107952	14.8533	72.1748	1218.42	23.286	58.5424	1672.8
0.381944	0.108067	14.751	72.2304	1211.34	23.261	58.6186	1672.45
0.388889	0.108187	14.6498	72.2886	1204.42	23.2361	58.6957	1672.13
0.395833	0.10831	14.5497	72.3489	1197.65	23.2114	58.7733	1671.84
0.402778	0.108436	14.4506	72.4111	1191.03	23.1867	58.8517	1671.58
0.409722	0.108565	14.3526	72.4748	1184.55	23.1622	58.9309	1671.34
0.416667	0.108697	14.2558	72.5399	1178.2	23.1378	59.0106	1671.14
0.423611	0.10883	14.1601	72.6064	1171.98	23.1135	59.0907	1670.95
0.430556	0.108965	14.0654	72.6743	1165.9	23.0894	59.1709	1670.79
0.4375	0.109102	13.9719	72.7432	1159.94	23.0656	59.2513	1670.64
0.444444	0.10924	13.8795	72.8126	1154.1	23.0419	59.3318	1670.52
0.451389	0.109379	13.7882	72.8828	1148.38	23.0184	59.4124	1670.41
0.458333	0.109519	13.698	72.9536	1142.77	22.995	59.4931	1670.32
0.465278	0.10966	13.6089	73.0251	1137.28	22.9719	59.5737	1670.24
0.472222	0.109801	13.5209	73.0967	1131.89	22.949	59.6538	1670.17
0.479167	0.109943	13.434	73.1687	1126.6	22.9264	59.7336	1670.11
0.486111	0.110084	13.3483	73.2411	1121.43	22.9039	59.8133	1670.07
0.493056	0.110226	13.2635	73.3137	1116.35	22.8817	59.8928	1670.04
0.5	0.110367	13.1799	73.3857	1111.36	22.8597	59.9722	1670.02
0.506944	0.110508	13.0974	73.457	1106.45	22.8379	60.051	1670.01
0.513889	0.110649	13.0159	73.5289	1101.65	22.8164	60.1292	1670.01
0.520833	0.11079	12.9354	73.6009	1096.94	22.7951	60.2067	1670
0.527778	0.11093	12.856	73.6728	1092.31	22.7741	60.2838	1670.01
0.534722	0.111069	12.7776	73.7435	1087.76	22.7533	60.3605	1670.03
0.541667	0.111208	12.7003	73.8142	1083.3	22.7327	60.4368	1670.05
0.548611	0.111346	12.624	73.8847	1078.92	22.7123	60.5125	1670.08
0.555556	0.111484	12.5487	73.955	1074.62	22.6923	60.5874	1670.11
0.5625	0.11162	12.4743	74.0248	1070.39	22.6724	60.6615	1670.14
0.569444	0.111756	12.401	74.0939	1066.24	22.6528	60.7349	1670.18
0.576389	0.111891	12.3286	74.1627	1062.16	22.6335	60.8078	1670.22
0.583333	0.112025	12.2572	74.2311	1058.16	22.6143	60.8801	1670.26
0.590278	0.112158	12.1867	74.299	1054.23	22.5954	60.952	1670.32
0.597222	0.11229	12.1172	74.3659	1050.36	22.5768	61.0231	1670.37
0.604167	0.112421	12.0486	74.4323	1046.55	22.5583	61.0933	1670.42
0.611111	0.112551	11.981	74.4983	1042.82	22.5402	61.1625	1670.47
0.618056	0.11268	11.9142	74.5637	1039.15	22.5222	61.231	1670.52
0.625	0.112808	11.8484	74.6282	1035.53	22.5045	61.2989	1670.57
0.631944	0.112935	11.7834	74.6921	1031.98	22.4871	61.3662	1670.63
0.638889	0.113061	11.7193	74.7554	1028.49	22.4698	61.433	1670.69
0.645833	0.113185	11.6561	74.8181	1025.06	22.4527	61.4992	1670.76
0.652778	0.113309	11.5937	74.88	1021.69	22.4358	61.5648	1670.83
0.659722	0.113431	11.5322	74.9411	1018.36	22.4192	61.6293	1670.89
0.666667	0.113553	11.4715	75.0016	1015.1	22.4029	61.6927	1670.95
0.673611	0.113673	11.4116	75.0616	1011.89	22.3867	61.7553	1671
0.680556	0.113793	11.3525	75.1211	1008.74	22.3708	61.8173	1671.06
0.6875	0.113911	11.2943	75.1796	1005.63	22.3551	61.8787	1671.12
0.694444	0.114028	11.2368	75.2372	1002.57	22.3396	61.9395	1671.19
0.701389	0.114145	11.1801	75.2945	999.569	22.3243	61.9997	1671.25
0.708333	0.11426	11.1242	75.3511	996.613	22.3091	62.0594	1671.32
0.715278	0.114374	11.0691	75.407	993.706	22.2942	62.1184	1671.39
0.722222	0.114486	11.0147	75.4622	990.845	22.2794	62.1769	1671.46
0.729167	0.114598	10.961	75.5166	988.028	22.2649	62.2342	1671.52
0.736111	0.114709	10.9081	75.5703	985.256	22.2506	62.2905	1671.58
0.743056	0.114819	10.8559	75.6236	982.532	22.2365	62.3461	1671.64
0.75	0.114928	10.8044	75.6764	979.854	22.2226	62.401	1671.69
0.756944	0.115036	10.7536	75.7283	977.216	22.2089	62.4553	1671.75
0.763889	0.115143	10.7035	75.7796	974.62	22.1953	62.5092	1671.81
0.770833	0.115249	10.654	75.8302	972.064	22.1819	62.5625	1671.87
0.777778	0.115354	10.6053	75.8803	969.55	22.1687	62.6153	1671.94
0.784722	0.115458	10.5572	75.9297	967.076	22.1557	62.6674	1672
0.791667	0.115561	10.5098	75.9787	964.644	22.1428	62.719	1672.07
0.798611	0.115663	10.463	76.0271	962.249	22.1301	62.7701	1672.13
0.805556	0.115764	10.4169	76.0747	959.89	22.1176	62.8206	1672.2
0.8125	0.115863	10.3714	76.1216	957.568	22.1052	62.8702	1672.26
0.819444	0.115962	10.3265	76.1681	955.283	22.0931	62.9188	1672.32
0.826389	0.116061	10.2822	76.214	953.035	22.0811	62.9666	1672.37
0.833333	0.116158	10.2386	76.2593	950.822	22.0694	63.0137	1672.42
0.840278	0.116255	10.1955	76.3039	948.642	22.0577	63.0604	1672.47
0.847222	0.11635	10.153	76.3482	946.499	22.0462	63.1067	1672.52
0.854167	0.116445	10.1112	76.3919	944.39	22.0349	63.1525	1672.58
0.861111	0.116539	10.0698	76.4353	942.315	22.0237	63.1978	1672.64
0.868056	0.116632	10.0291	76.478	940.271	22.0126	63.2426	1672.7
0.875	0.116725	9.98888	76.5202	938.261	22.0017	63.2869	1672.75
0.881944	0.116816	9.94924	76.562	936.282	21.9909	63.3306	1672.81
0.888889	0.116907	9.91013	76.6031	934.331	21.9803	63.3738	1672.87
0.895833	0.116996	9.87156	76.6436	932.411	21.9698	63.4166	1672.93
0.902778	0.117085	9.83351	76.6837	930.521	21.9595	63.459	1672.99
0.909722	0.117173	9.79599	76.7232	928.66	21.9493	63.5009	1673.05
0.916667	0.117259	9.75898	76.7624	926.828	21.9392	63.5424	1673.11
0.923611	0.117345	9.72247	76.8011	925.025	21.9292	63.5828	1673.16
0.930556	0.117431	9.68647	76.839	923.247	21.9195	63.6223	1673.21
0.9375	0.117515	9.65096	76.8765	921.497	21.9099	63.6613	1673.25
0.944444	0.117599	9.61594	76.9137	919.776	21.9004	63.6998	1673.29
0.951389	0.117683	9.5814	76.9503	918.08	21.8911	63.7379	1673.34
0.958333	0.117765	9.54733	76.9866	916.411	21.8819	63.7756	1673.39
0.965278	0.117847	9.51372	77.0226	914.769	21.8728	63.8129	1673.44
0.972222	0.117928	9.48058	77.0581	913.153	21.8638	63.8499	1673.48
0.979167	0.118009	9.44789	77.0932	911.562	21.8549	63.8864	1673.54
0.986111	0.118088	9.41564	77.128	909.996	21.8461	63.9225	1673.58
0.993056	0.118167	9.38384	77.1621	908.452	21.8375	63.9581	1673.63
1	0.118245	9.35248	77.196	906.933	21.8289	63.9933	1673.68
1.00694	0.118323	9.32154	77.2295	905.439	21.8205	64.0281	1673.73
1.01389	0.118399	9.29102	77.2626	903.966	21.8122	64.0625	1673.78
1.02083	0.118475	9.26093	77.2953	902.516	21.804	64.0965	1673.83
1.02778	0.118551	9.23124	77.3276	901.088	21.7959	64.1302	1673.88
1.03472	0.118625	9.20196	77.3594	899.681	21.7879	64.1635	1673.93
1.04167	0.118699	9.17308	77.3906	898.293	21.78	64.1964	1673.99
1.04861	0.118771	9.14459	77.4216	896.928	21.7723	64.2289	1674.04
1.05556	0.118844	9.1165	77.4522	895.583	21.7646	64.261	1674.09
1.0625	0.118915	9.08879	77.4823	894.257	21.757	64.2927	1674.14
1.06944	0.118986	9.06145	77.5121	892.952	21.7495	64.3237	1674.18
1.07639	0.119056	9.0345	77.5415	891.667	21.7422	64.3538	1674.22
1.08333	0.119126	9.00791	77.5707	890.403	21.735	64.3835	1674.25
1.09028	0.119195	8.98169	77.5995	889.157	21.7279	64.4129	1674.29
1.09722	0.119263	8.95582	77.628	887.932	21.7209	64.442	1674.33
1.10417	0.119331	8.93032	77.6563	886.725	21.714	64.4708	1674.37
1.11111	0.119399	8.90516	77.6842	885.536	21.7072	64.4993	1674.41
1.11806	0.119465	8.88034	77.7116	884.365	21.7004	64.5275	1674.45
1.125	0.119532	8.85587	77.7388	883.212	21.6937	64.5554	1674.49
1.13194	0.119597	8.83172	77.7658	882.077	21.6872	64.5829	1674.53
1.13889	0.119662	8.80791	77.7924	880.959	21.6807	64.6101	1674.57
1.14583	0.119727	8.78443	77.8187	879.858	21.6743	64.6369	1674.61
1.15278	0.11979	8.76127	77.8448	878.774	21.668	64.6634	1674.65
1.15972	0.119854	8.73842	77.8706	877.708	21.6617	64.6896	1674.69
1.16667	0.119916	8.71588	77.896	876.656	21.6556	64.7155	1674.73
1.17361	0.119978	8.69366	77.921	875.62	21.6495	64.7411	1674.77
1.18056	0.12004	8.67173	77.9458	874.599	21.6435	64.7664	1674.81
1.1875	0.120101	8.65011	77.9704	873.594	21.6376	64.7914	1674.85
1.19444	0.120161	8.62878	77.9947	872.605	21.6318	64.8161	1674.89
1.20139	0.120221	8.60775	78.0186	871.629	21.626	64.8406	1674.93
1.20833	0.12028	8.587	78.0423	870.669	21.6203	64.8647	1674.98
1.21528	0.120338	8.56653	78.0657	869.724	21.6147	64.8886	1675.02
1.22222	0.120396	8.54635	78.0889	868.793	21.6092	64.9122	1675.06
1.22917	0.120453	8.52644	78.1118	867.875	21.6037	64.9355	1675.1
1.23611	0.12051	8.5068	78.1343	866.97	21.5983	64.9585	1675.14
1.24306	0.120566	8.48743	78.1566	866.079	21.593	64.9813	1675.18
1.25	0.120622	8.46832	78.1785	865.201	21.5877	65.0038	1675.22
1.25694	0.120677	8.44948	78.2003	864.336	21.5825	65.026	1675.26
1.26389	0.120731	8.43089	78.2216	863.482	21.5774	65.048	1675.3
1.27083	0.120785	8.41256	78.2427	862.642	21.5724	65.0697	1675.34
1.27778	0.120838	8.39448	78.2637	861.815	21.5674	65.0911	1675.38
1.28472	0.120891	8.37664	78.2843	860.999	21.5625	65.1116	1675.41
1.29167	0.120943	8.35905	78.3048	860.196	21.5577	65.1318	1675.44
1.29861	0.120995	8.34171	78.3249	859.405	21.553	65.1517	1675.47
1.30556	0.121047	8.3246	78.3449	858.626	21.5483	65.1714	1675.5
1.3125	0.121098	8.30772	78.3646	857.859	21.5437	65.1909	1675.53
1.31944	0.121148	8.29108	78.3842	857.104	21.5392	65.2102	1675.56
1.32639	0.121199	8.27466	78.4036	856.36	21.5347	65.2293	1675.59
1.33333	0.121248	8.25847	78.4226	855.627	21.5303	65.2482	1675.62
1.34028	0.121298	8.2425	78.4415	854.905	21.5259	65.267	1675.65
1.34722	0.121347	8.22674	78.4603	854.194	21.5216	65.2855	1675.68
1.35417	0.121395	8.21121	78.4788	853.494	21.5173	65.3037	1675.72
1.36111	0.121443	8.19588	78.4971	852.805	21.5131	65.3218	1675.75
1.36806	0.121491	8.18076	78.5152	852.125	21.509	65.3396	1675.78
1.375	0.121538	8.16585	78.5331	851.455	21.5049	65.3571	1675.81
1.38194	0.121584	8.15115	78.5507	850.796	21.5009	65.3744	1675.84
1.38889	0.121631	8.13664	78.5682	850.146	21.4969	65.3915	1675.87
1.39583	0.121677	8.12234	78.5855	849.507	21.4929	65.4084	1675.9
1.40278	0.121722	8.10823	78.6027	848.877	21.4891	65.4251	1675.93
1.40972	0.121767	8.09431	78.6197	848.257	21.4852	65.4416	1675.96
1.41667	0.121811	8.08058	78.6365	847.647	21.4815	65.458	1675.99
1.42361	0.121856	8.06704	78.6532	847.045	21.4777	65.4741	1676.02
1.43056	0.121899	8.05368	78.6695	846.452	21.474	65.4901	1676.05
1.4375	0.121943	8.04051	78.6857	845.868	21.4704	65.5059	1676.08
1.44444	0.121985	8.02752	78.7018	845.292	21.4668	65.5215	1676.11
1.45139	0.122028	8.0147	78.7176	844.725	21.4633	65.5369	1676.14
1.45833	0.12207	8.00206	78.7332	844.166	21.4598	65.5521	1676.17
1.46528	0.122111	7.98959	78.7486	843.615	21.4563	65.5672	1676.2
1.47222	0.122152	7.97729	78.7639	843.072	21.4529	65.582	1676.23
1.47917	0.122193	7.96516	78.779	842.538	21.4496	65.5967	1676.26
1.48611	0.122233	7.9532	78.794	842.011	21.4462	65.6113	1676.29
1.49306	0.122273	7.94139	78.8088	841.493	21.443	65.6256	1676.32
1.5	0.122312	7.92975	78.8234	840.982	21.4397	65.6398	1676.35
1.50694	0.122351	7.91827	78.8379	840.479	21.4365	65.6538	1676.38
1.51389	0.12239	7.90694	78.8521	839.982	21.4334	65.6676	1676.41
1.52083	0.122428	7.89577	78.8661	839.492	21.4303	65.6813	1676.44
1.52778	0.122465	7.88475	78.88	839.01	21.4272	65.6947	1676.47
1.53472	0.122503	7.87389	78.8937	838.534	21.4242	65.7081	1676.5
1.54167	0.122539	7.86317	78.9073	838.066	21.4212	65.7212	1676.53
1.54861	0.122576	7.85259	78.9206	837.604	21.4183	65.7342	1676.56
1.55556	0.122612	7.84216	78.9337	837.148	21.4154	65.7471	1676.59
1.5625	0.122647	7.83188	78.9467	836.699	21.4125	65.7597	1676.62
1.56944	0.122683	7.82173	78.9596	836.256	21.4097	65.7722	1676.64
1.57639	0.122717	7.81172	78.9723	835.821	21.4069	65.7846	1676.67
1.58333	0.122752	7.80185	78.9849	835.391	21.4041	65.7968	1676.7
1.59028	0.122786	7.79211	78.9973	834.968	21.4014	65.8089	1676.73
1.59722	0.12282	7.78251	79.0096	834.551	21.3987	65.8208	1676.76
1.60417	0.122853	7.77303	79.0217	834.14	21.396	65.8325	1676.78
1.61111	0.122886	7.76369	79.0336	833.734	21.3934	65.8441	1676.81
1.61806	0.122918	7.75447	79.0453	833.334	21.3909	65.8556	1676.84
1.625	0.12295	7.74538	79.0569	832.939	21.3883	65.8669	1676.86
1.63194	0.122982	7.73642	79.0683	832.55	21.3858	65.878	1676.89
1.63889	0.123013	7.72757	79.0797	832.167	21.3833	65.8891	1676.91
1.64583	0.123045	7.71885	79.0908	831.789	21.3809	65.8996	1676.94
1.65278	0.123075	7.71025	79.1019	831.417	21.3785	65.9099	1676.95
1.65972	0.123106	7.70176	79.1128	831.051	21.3762	65.92	1676.97
1.66667	0.123136	7.69339	79.1236	830.69	21.3739	65.9301	1676.99
1.67361	0.123166	7.68514	79.1343	830.335	21.3716	65.94	1677.01
1.68056	0.123196	7.677	79.145	829.985	21.3694	65.9499	1677.03
1.6875	0.123226	7.66897	79.1555	829.64	21.3672	65.9596	1677.05
1.69444	0.123255	7.66105	79.1659	829.301	21.365	65.9692	1677.07
1.70139	0.123284	7.65324	79.1762	828.967	21.3628	65.9788	1677.09
1.70833	0.123313	7.64553	79.1864	828.637	21.3607	65.9882	1677.11
1.71528	0.123341	7.63793	79.1964	828.313	21.3586	65.9975	1677.13
1.72222	0.123369	7.63043	79.2064	827.993	21.3565	66.0068	1677.15
1.72917	0.123397	7.62304	79.2162	827.678	21.3544	66.0159	1677.17
1.73611	0.123425	7.61575	79.226	827.368	21.3524	66.0249	1677.19
1.74306	0.123452	7.60855	79.2356	827.061	21.3504	66.0338	1677.21
1.75	0.123479	7.60146	79.2451	826.76	21.3484	66.0426	1677.23
1.75694	0.123506	7.59446	79.2545	826.463	21.3464	66.0512	1677.25
1.76389	0.123533	7.58755	79.2638	826.17	21.3445	66.0598	1677.27
1.77083	0.123559	7.58074	79.273	825.882	21.3426	66.0683	1677.29
1.77778	0.123585	7.57403	79.2821	825.598	21.3407	66.0766	1677.3
1.78472	0.123611	7.5674	79.2911	825.318	21.3389	66.0848	1677.32
1.79167	0.123636	7.56087	79.3001	825.043	21.3371	66.0929	1677.34
1.79861	0.123661	7.55442	79.3089	824.772	21.3353	66.1009	1677.36
1.80556	0.123686	7.54807	79.3177	824.505	21.3335	66.1088	1677.38
1.8125	0.123711	7.5418	79.3263	824.242	21.3317	66.1166	1677.39
1.81944	0.123735	7.53561	79.3349	823.982	21.33	66.1244	1677.41
1.82639	0.12376	7.52951	79.3434	823.727	21.3283	66.132	1677.43
1.83333	0.123784	7.52349	79.3518	823.476	21.3266	66.1396	1677.45
1.84028	0.123807	7.51756	79.3601	823.228	21.325	66.147	1677.47
1.84722	0.123831	7.5117	79.3683	822.983	21.3233	66.1544	1677.48
1.85417	0.123854	7.50593	79.3763	822.742	21.3217	66.1617	1677.5
1.86111	0.123877	7.50023	79.3843	822.504	21.3201	66.1688	1677.52
1.86806	0.1239	7.49461	79.3922	822.27	21.3185	66.1759	1677.54
1.875	0.123922	7.48907	79.4	822.04	21.317	66.183	1677.56
1.88194	0.123944	7.4836	79.4077	821.812	21.3154	66.1899	1677.57
1.88889	0.123966	7.47821	79.4154	821.588	21.3139	66.1967	1677.59
1.89583	0.123988	7.47289	79.4229	821.368	21.3124	66.2035	1677.61
1.90278	0.12401	7.46765	79.4303	821.15	21.3109	66.2102	1677.62
1.90972	0.124031	7.46247	79.4376	820.935	21.3095	66.2168	1677.64
1.91667	0.124052	7.45737	79.4449	820.723	21.308	66.2233	1677.66
1.92361	0.124073	7.45233	79.4521	820.515	21.3066	66.2297	1677.68
1.93056	0.124093	7.44737	79.4592	820.31	21.3052	66.2361	1677.69
1.9375	0.124114	7.44247	79.4662	820.108	21.3038	66.2424	1677.71
1.94444	0.124134	7.43764	79.4731	819.908	21.3025	66.2486	1677.73
1.95139	0.124154	7.43287	79.48	819.712	21.3011	66.2547	1677.74
1.95833	0.124173	7.42817	79.4868	819.519	21.2998	66.2608	1677.76
1.96528	0.124193	7.42353	79.4935	819.328	21.2985	66.2667	1677.77
1.97222	0.124212	7.41896	79.5002	819.14	21.2972	66.2726	1677.79
1.97917	0.124231	7.41445	79.5067	818.955	21.2959	66.2785	1677.81
1.98611	0.12425	7.41	79.5132	818.773	21.2946	66.2842	1677.82
1.99306	0.124268	7.40561	79.5196	818.593	21.2934	66.2899	1677.84
2	0.124287	7.40128	79.5259	818.416	21.2921	66.2955	1677.85
2.00694	0.124305	7.39701	79.5322	818.241	21.2909	66.3011	1677.87
2.01389	0.124323	7.3928	79.5383	818.068	21.2897	66.3065	1677.88
2.02083	0.12434	7.38864	79.5444	817.898	21.2886	66.3119	1677.9
2.02778	0.124358	7.38454	79.5504	817.73	21.2874	66.3173	1677.91
2.03472	0.124375	7.3805	79.5563	817.565	21.2862	66.3225	1677.93
2.04167	0.124392	7.37651	79.5621	817.402	21.2851	66.3277	1677.94
2.04861	0.124409	7.37258	79.5679	817.241	21.284	66.3328	1677.96
2.05556	0.124426	7.3687	79.5736	817.083	21.2829	66.3379	1677.97
2.0625	0.124442	7.36487	79.5792	816.927	21.2818	66.3429	1677.99
2.06944	0.124459	7.3611	79.5848	816.773	21.2807	66.3478	1678
2.07639	0.124475	7.35737	79.5903	816.621	21.2797	66.3527	1678.01
2.08333	0.124491	7.3537	79.5957	816.472	21.2786	66.3575	1678.03
2.09028	0.124506	7.35008	79.6011	816.324	21.2776	66.3623	1678.04
2.09722	0.124522	7.3465	79.6064	816.179	21.2766	66.3669	1678.06
2.10417	0.124537	7.34298	79.6116	816.036	21.2756	66.3716	1678.07
2.11111	0.124553	7.3395	79.6168	815.895	21.2746	66.3761	1678.08
2.11806	0.124568	7.33607	79.6219	815.756	21.2736	66.3806	1678.1
2.125	0.124582	7.33269	79.627	815.619	21.2726	66.3851	1678.11
2.13194	0.124597	7.32935	79.632	815.484	21.2717	66.3895	1678.12
2.13889	0.124612	7.32606	79.6369	815.35	21.2707	66.3938	1678.13
2.14583	0.124626	7.32282	79.6418	815.219	21.2698	66.3981	1678.15
2.15278	0.12464	7.31961	79.6466	815.09	21.2689	66.4024	1678.16
2.15972	0.124654	7.31646	79.6514	814.962	21.268	66.4065	1678.17
2.16667	0.124668	7.31334	79.6561	814.836	21.2671	66.4107	1678.19
2.17361	0.124681	7.31027	79.6607	814.712	21.2662	66.4147	1678.2
2.18056	0.124695	7.30723	79.6653	814.59	21.2653	66.4188	1678.21
2.1875	0.124708	7.30424	79.6698	814.47	21.2645	66.4227	1678.22
2.19444	0.124721	7.30129	79.6743	814.351	21.2636	66.4267	1678.23
2.20139	0.124734	7.29839	79.6787	814.234	21.2628	66.4305	1678.25
2.20833	0.124747	7.29552	79.683	814.118	21.262	66.4343	1678.26
2.21528	0.12476	7.29269	79.6873	814.005	21.2612	66.4381	1678.27
2.22222	0.124772	7.28989	79.6916	813.892	21.2604	66.4418	1678.28
2.22917	0.124784	7.28714	79.6958	813.782	21.2596	66.4455	1678.29
2.23611	0.124796	7.28442	79.6999	813.672	21.2588	66.4491	1678.3
2.24306	0.124809	7.28174	79.704	813.565	21.258	66.4527	1678.31
2.25	0.12482	7.2791	79.708	813.459	21.2573	66.4563	1678.33
2.25694	0.124832	7.27649	79.712	813.354	21.2565	66.4597	1678.34
2.26389	0.124844	7.27392	79.7159	813.251	21.2558	66.4632	1678.35
2.27083	0.124855	7.27138	79.7198	813.149	21.255	66.4666	1678.36
2.27778	0.124866	7.26888	79.7236	813.049	21.2543	66.4699	1678.37
2.28472	0.124878	7.26641	79.7274	812.95	21.2536	66.4732	1678.38
2.29167	0.124889	7.26398	79.7311	812.852	21.2529	66.4765	1678.39
2.29861	0.1249	7.26158	79.7348	812.756	21.2522	66.4797	1678.4
2.30556	0.12491	7.25921	79.7384	812.661	21.2515	66.4829	1678.41
2.3125	0.124921	7.25687	79.7419	812.567	21.2509	66.486	1678.42
2.31944	0.124931	7.25457	79.7455	812.475	21.2502	66.4891	1678.43
2.32639	0.124942	7.25229	79.749	812.384	21.2495	66.4922	1678.44
2.33333	0.124952	7.25005	79.7524	812.294	21.2489	66.4952	1678.45
2.34028	0.124962	7.24784	79.7558	812.206	21.2483	66.4982	1678.46
2.34722	0.124972	7.24566	79.7592	812.119	21.2476	66.5011	1678.47
2.35417	0.124982	7.2435	79.7625	812.033	21.247	66.504	1678.48
2.36111	0.124992	7.24138	79.7658	811.948	21.2464	66.5069	1678.48
2.36806	0.125001	7.23929	79.769	811.865	21.2458	66.5097	1678.49
2.375	0.125011	7.23722	79.7722	811.782	21.2452	66.5125	1678.5
2.38194	0.12502	7.23518	79.7753	811.701	21.2446	66.5152	1678.51
2.38889	0.125029	7.23317	79.7785	811.621	21.244	66.518	1678.52
2.39583	0.125038	7.23119	79.7815	811.542	21.2434	66.5206	1678.53
2.40278	0.125047	7.22924	79.7846	811.465	21.2429	66.5233	1678.54
2.40972	0.125056	7.22731	79.7876	811.388	21.2423	66.5259	1678.55
2.41667	0.125065	7.22541	79.7906	811.312	21.2418	66.5285	1678.55
2.42361	0.125074	7.22353	79.7935	811.238	21.2412	66.531	1678.56
2.43056	0.125082	7.22168	79.7964	811.164	21.2407	66.5335	1678.57
2.4375	0.125091	7.21985	79.7992	811.092	21.2402	66.536	1678.58
2.44444	0.125099	7.21805	79.8021	811.02	21.2396	66.5385	1678.59
2.45139	0.125107	7.21627	79.8048	810.95	21.2391	66.5409	1678.6
2.45833	0.125116	7.21452	79.8076	810.881	21.2386	66.5433	1678.6
2.46528	0.125124	7.21279	79.8103	810.812	21.2381	66.5456	1678.61
2.47222	0.125132	7.21109	79.813	810.745	21.2376	66.5479	1678.62
2.47917	0.125139	7.20941	79.8156	810.678	21.2371	66.5502	1678.63
2.48611	0.125147	7.20775	79.8182	810.612	21.2367	66.5525	1678.63
2.49306	0.125155	7.20611	79.8208	810.548	21.2362	66.5547	1678.64
2.5	0.125162	7.2045	79.8233	810.484	21.2357	66.5569	1678.65
2.50694	0.12517	7.2029	79.8259	810.421	21.2353	66.5591	1678.66
2.51389	0.125177	7.20133	79.8283	810.359	21.2348	66.5612	1678.66
2.52083	0.125184	7.19978	79.8308	810.298	21.2344	66.5633	1678.67
2.52778	0.125192	7.19825	79.8332	810.237	21.2339	66.5654	1678.68
2.53472	0.125199	7.19675	79.8356	810.178	21.2335	66.5675	1678.68
2.54167	0.125206	7.19526	79.8379	810.119	21.233	66.5695	1678.69
2.54861	0.125213	7.19379	79.8403	810.061	21.2326	66.5715	1678.7
2.55556	0.125219	7.19235	79.8426	810.004	21.2322	66.5735	1678.7
2.5625	0.125226	7.19092	79.8448	809.948	21.2318	66.5755	1678.71
2.56944	0.125233	7.18951	79.8471	809.893	21.2314	66.5774	1678.72
2.57639	0.125239	7.18812	79.8493	809.838	21.231	66.5793	1678.72
2.58333	0.125246	7.18675	79.8514	809.784	21.2306	66.5812	1678.73
2.59028	0.125252	7.1854	79.8536	809.731	21.2302	66.583	1678.74
2.59722	0.125259	7.18407	79.8557	809.679	21.2298	66.5849	1678.74
2.60417	0.125265	7.18275	79.8578	809.627	21.2294	66.5867	1678.75
2.61111	0.125271	7.18146	79.8599	809.576	21.229	66.5884	1678.75
2.61806	0.125277	7.18018	79.862	809.526	21.2287	66.5902	1678.76
2.625	0.125283	7.17892	79.864	809.476	21.2283	66.5919	1678.77
2.63194	0.125289	7.17767	79.866	809.428	21.2279	66.5937	1678.77
2.63889	0.125295	7.17644	79.8679	809.38	21.2276	66.5953	1678.78
2.64583	0.125301	7.17523	79.8699	809.332	21.2272	66.597	1678.78
2.65278	0.125306	7.17404	79.8718	809.285	21.2269	66.5987	1678.79
2.65972	0.125312	7.17286	79.8737	809.239	21.2265	66.6003	1678.8
2.66667	0.125318	7.1717	79.8756	809.193	21.2262	66.6019	1678.8
2.67361	0.125323	7.17055	79.8774	809.148	21.2259	66.6035	1678.81
2.68056	0.125328	7.16942	79.8792	809.104	21.2255	66.605	1678.81
2.6875	0.125334	7.1683	79.881	809.06	21.2252	66.6066	1678.82
2.69444	0.125339	7.1672	79.8828	809.017	21.2249	66.6081	1678.82
2.70139	0.125344	7.16612	79.8845	808.975	21.2246	66.6096	1678.83
2.70833	0.125349	7.16505	79.8863	808.933	21.2243	66.6111	1678.83
2.71528	0.125355	7.16399	79.888	808.892	21.2239	66.6125	1678.84
2.72222	0.12536	7.16295	79.8896	808.851	21.2236	66.614	1678.84
2.72917	0.125365	7.16192	79.8913	808.811	21.2233	66.6154	1678.85
2.73611	0.125369	7.16091	79.8929	808.771	21.223	66.6168	1678.85
2.74306	0.125374	7.15991	79.8946	808.732	21.2228	66.6182	1678.86
2.75	0.125379	7.15892	79.8962	808.694	21.2225	66.6196	1678.86
2.75694	0.125384	7.15795	79.8977	808.656	21.2222	66.6209	1678.87
2.76389	0.125388	7.15699	79.8993	808.618	21.2219	66.6222	1678.87
2.77083	0.125393	7.15604	79.9009	808.582	21.2216	66.6236	1678.88
2.77778	0.125398	7.15511	79.9024	808.545	21.2214	66.6249	1678.88
2.78472	0.125402	7.15419	79.9039	808.509	21.2211	66.6261	1678.89
2.79167	0.125406	7.15328	79.9054	808.474	21.2208	66.6274	1678.89
2.79861	0.125411	7.15238	79.9068	808.439	21.2206	66.6286	1678.89
2.80556	0.125415	7.1515	79.9083	808.405	21.2203	66.6299	1678.9
2.8125	0.125419	7.15063	79.9097	808.371	21.22	66.6311	1678.9
2.81944	0.125424	7.14977	79.9111	808.338	21.2198	66.6323	1678.91
2.82639	0.125428	7.14892	79.9125	808.305	21.2195	66.6335	1678.91
2.83333	0.125432	7.14808	79.9139	808.272	21.2193	66.6346	1678.92
2.84028	0.125436	7.14725	79.9153	808.24	21.2191	66.6358	1678.92
2.84722	0.12544	7.14644	79.9166	808.209	21.2188	66.6369	1678.92
2.85417	0.125444	7.14564	79.9179	808.178	21.2186	66.6381	1678.93
2.86111	0.125448	7.14484	79.9192	808.147	21.2183	66.6392	1678.93
2.86806	0.125452	7.14406	79.9205	808.117	21.2181	66.6403	1678.94
2.875	0.125455	7.14329	79.9218	808.087	21.2179	66.6413	1678.94
2.88194	0.125459	7.14253	79.9231	808.058	21.2177	66.6424	1678.94
2.88889	0.125463	7.14178	79.9243	808.029	21.2175	66.6435	1678.95
2.89583	0.125467	7.14104	79.9255	808	21.2172	66.6445	1678.95
2.90278	0.12547	7.14031	79.9268	807.972	21.217	66.6455	1678.96
2.90972	0.125474	7.13959	79.9279	807.944	21.2168	66.6465	1678.96
2.91667	0.125477	7.13888	79.9291	807.917	21.2166	66.6475	1678.96
2.92361	0.125481	7.13818	79.9303	807.889	21.2164	66.6485	1678.97
2.93056	0.125484	7.13749	79.9314	807.863	21.2162	66.6495	1678.97
2.9375	0.125488	7.1368	79.9326	807.837	21.216	66.6504	1678.97
2.94444	0.125491	7.13613	79.9337	807.811	21.2158	66.6514	1678.98
2.95139	0.125494	7.13547	79.9348	807.785	21.2156	66.6523	1678.98
2.95833	0.125497	7.13481	79.9359	807.76	21.2154	66.6532	1678.98
2.96528	0.125501	7.13417	79.937	807.735	21.2152	66.6541	1678.99
2.97222	0.125504	7.13353	79.938	807.711	21.215	66.655	1678.99
2.97917	0.125507	7.1329	79.9391	807.686	21.2148	66.6559	1678.99
2.98611	0.12551	7.13228	79.9401	807.663	21.2147	66.6568	1679
2.99306	0.125513	7.13167	79.9412	807.639	21.2145	66.6577	1679
3	0.125516	7.13107	79.9422	807.616	21.2143	66.6585	1679
3.00694	0.125519	7.13047	79.9432	807.593	21.2141	66.6594	1679.01
3.01389	0.125522	7.12989	79.9442	807.571	21.214	66.6602	1679.01
3.02083	0.125525	7.12931	79.9451	807.549	21.2138	66.661	1679.01
3.02778	0.125528	7.12874	79.9461	807.527	21.2136	66.6618	1679.02
3.03472	0.125531	7.12817	79.9471	807.505	21.2135	66.6626	1679.02
3.04167	0.125534	7.12762	79.948	807.484	21.2133	66.6634	1679.02
3.04861	0.125536	7.12707	79.9489	807.463	21.2131	66.6642	1679.02
3.05556	0.125539	7.12653	79.9499	807.442	21.213	66.6649	1679.03
3.0625	0.125542	7.12599	79.9508	807.422	21.2128	66.6657	1679.03
3.06944	0.125544	7.12547	79.9517	807.402	21.2127	66.6664	1679.03
3.07639	0.125547	7.12495	79.9526	807.382	21.2125	66.6672	1679.04
3.08333	0.12555	7.12444	79.9534	807.363	21.2124	66.6679	1679.04
3.09028	0.125552	7.12393	79.9543	807.344	21.2122	66.6686	1679.04
3.09722	0.125555	7.12343	79.9552	807.325	21.2121	66.6693	1679.04
3.10417	0.125557	7.12294	79.956	807.306	21.2119	66.67	1679.05
3.11111	0.12556	7.12246	79.9568	807.288	21.2118	66.6707	1679.05
3.11806	0.125562	7.12198	79.9577	807.269	21.2116	66.6714	1679.05
3.125	0.125565	7.12151	79.9585	807.251	21.2115	66.6721	1679.05
3.13194	0.125567	7.12104	79.9593	807.234	21.2113	66.6727	1679.06
3.13889	0.125569	7.12058	79.9601	807.216	21.2112	66.6734	1679.06
3.14583	0.125572	7.12013	79.9608	807.199	21.2111	66.674	1679.06
3.15278	0.125574	7.11968	79.9616	807.182	21.2109	66.6747	1679.06
3.15972	0.125576	7.11924	79.9624	807.166	21.2108	66.6753	1679.07
3.16667	0.125579	7.11881	79.9631	807.149	21.2107	66.6759	1679.07
3.17361	0.125581	7.11838	79.9639	807.133	21.2106	66.6765	1679.07
3.18056	0.125583	7.11796	79.9646	807.117	21.2104	66.6772	1679.07
3.1875	0.125585	7.11754	79.9653	807.101	21.2103	66.6778	1679.08
3.19444	0.125587	7.11713	79.9661	807.086	21.2102	66.6783	1679.08
3.20139	0.125589	7.11672	79.9668	807.07	21.2101	66.6789	1679.08
3.20833	0.125591	7.11632	79.9675	807.055	21.21	66.6795	1679.08
3.21528	0.125593	7.11593	79.9682	807.041	21.2098	66.6801	1679.09
3.22222	0.125596	7.11554	79.9689	807.026	21.2097	66.6806	1679.09
3.22917	0.125598	7.11515	79.9695	807.011	21.2096	66.6812	1679.09
3.23611	0.1256	7.11477	79.9702	806.997	21.2095	66.6817	1679.09
3.24306	0.125601	7.1144	79.9709	806.983	21.2094	66.6823	1679.09
3.25	0.125603	7.11403	79.9715	806.969	21.2093	66.6828	1679.1
3.25694	0.125605	7.11367	79.9722	806.956	21.2092	66.6833	1679.1
3.26389	0.125607	7.11331	79.9728	806.942	21.2091	66.6838	1679.1
3.27083	0.125609	7.11295	79.9734	806.929	21.209	66.6844	1679.1
3.27778	0.125611	7.1126	79.9741	806.916	21.2088	66.6849	1679.1
3.28472	0.125613	7.11226	79.9747	806.903	21.2087	66.6854	1679.11
3.29167	0.125615	7.11192	79.9753	806.89	21.2086	66.6859	1679.11
3.29861	0.125616	7.11158	79.9759	806.878	21.2085	66.6863	1679.11
3.30556	0.125618	7.11125	79.9765	806.866	21.2084	66.6868	1679.11
3.3125	0.12562	7.11093	79.9771	806.853	21.2084	66.6873	1679.11
3.31944	0.125622	7.1106	79.9776	806.841	21.2083	66.6877	1679.11
3.32639	0.125623	7.11029	79.9782	806.83	21.2082	66.6881	1679.12
3.33333	0.125625	7.10997	79.9788	806.818	21.2081	66.6886	1679.12
3.34028	0.125627	7.10966	79.9793	806.807	21.208	66.689	1679.12
3.34722	0.125628	7.10936	79.9799	806.795	21.2079	66.6894	1679.12
3.35417	0.12563	7.10906	79.9804	806.784	21.2078	66.6899	1679.12
3.36111	0.125632	7.10876	79.981	806.773	21.2077	66.6903	1679.12
3.36806	0.125633	7.10847	79.9815	806.763	21.2076	66.6907	1679.13
3.375	0.125635	7.10818	79.9821	806.752	21.2075	66.6911	1679.13
3.38194	0.125636	7.1079	79.9826	806.742	21.2075	66.6915	1679.13
3.38889	0.125638	7.10761	79.9831	806.732	21.2074	66.6919	1679.13
3.39583	0.125639	7.10734	79.9836	806.721	21.2073	66.6923	1679.13
3.40278	0.125641	7.10706	79.9842	806.712	21.2072	66.6927	1679.13
3.40972	0.125642	7.10679	79.9847	806.702	21.2071	66.6931	1679.13
3.41667	0.125644	7.10653	79.9852	806.692	21.2071	66.6934	1679.14
3.42361	0.125645	7.10627	79.9857	806.683	21.207	66.6938	1679.14
3.43056	0.125647	7.10601	79.9862	806.673	21.2069	66.6942	1679.14
3.4375	0.125648	7.10575	79.9867	806.664	21.2068	66.6946	1679.14
3.44444	0.12565	7.1055	79.9871	806.655	21.2068	66.6949	1679.14
3.45139	0.125651	7.10525	79.9876	806.646	21.2067	66.6953	1679.14
3.45833	0.125653	7.10501	79.9881	806.637	21.2066	66.6956	1679.14
3.46528	0.125654	7.10476	79.9886	806.629	21.2065	66.696	1679.15
3.47222	0.125655	7.10452	79.989	806.62	21.2065	66.6963	1679.15
3.47917	0.125657	7.10429	79.9895	806.612	21.2064	66.6967	1679.15
3.48611	0.125658	7.10406	79.99	806.604	21.2063	66.697	1679.15
3.49306	0.12566	7.10383	79.9904	806.596	21.2063	66.6974	1679.15
3.5	0.125661	7.1036	79.9909	806.588	21.2062	66.6977	1679.15
3.50694	0.125662	7.10338	79.9913	806.58	21.2061	66.698	1679.15
3.51389	0.125663	7.10316	79.9917	806.572	21.2061	66.6983	1679.16
3.52083	0.125665	7.10294	79.9922	806.564	21.206	66.6987	1679.16
3.52778	0.125666	7.10273	79.9926	806.557	21.2059	66.699	1679.16
3.53472	0.125667	7.10252	79.993	806.55	21.2059	66.6993	1679.16
3.54167	0.125669	7.10231	79.9935	806.542	21.2058	66.6996	1679.16
3.54861	0.12567	7.1021	79.9939	806.535	21.2057	66.6999	1679.16
3.55556	0.125671	7.1019	79.9943	806.528	21.2057	66.7002	1679.16
3.5625	0.125672	7.1017	79.9947	806.521	21.2056	66.7005	1679.17
3.56944	0.125673	7.1015	79.9951	806.514	21.2056	66.7008	1679.17
3.57639	0.125675	7.10131	79.9955	806.507	21.2055	66.7011	1679.17
3.58333	0.125676	7.10112	79.9959	806.501	21.2054	66.7014	1679.17
3.59028	0.125677	7.10093	79.9963	806.494	21.2054	66.7017	1679.17
3.59722	0.125678	7.10074	79.9967	806.488	21.2053	66.7019	1679.17
3.60417	0.125679	7.10055	79.9971	806.482	21.2053	66.7022	1679.17
3.61111	0.12568	7.10037	79.9974	806.475	21.2052	66.7025	1679.17
3.61806	0.125681	7.10019	79.9978	806.469	21.2052	66.7028	1679.18
3.625	0.125682	7.10002	79.9982	806.463	21.2051	66.703	1679.18
3.63194	0.125683	7.09984	79.9986	806.457	21.2051	66.7033	1679.18
3.63889	0.125685	7.09967	79.9989	806.451	21.205	66.7036	1679.18
3.64583	0.125686	7.0995	79.9993	806.446	21.205	66.7038	1679.18
3.65278	0.125687	7.09933	79.9996	806.44	21.2049	66.7041	1679.18
3.65972	0.125688	7.09917	80	806.434	21.2049	66.7043	1679.18
3.66667	0.125689	7.099	80.0003	806.429	21.2048	66.7046	1679.18
3.67361	0.12569	7.09884	80.0007	806.423	21.2048	66.7048	1679.18
3.68056	0.125691	7.09868	80.001	806.418	21.2047	66.7051	1679.19
3.6875	0.125692	7.09853	80.0014	806.413	21.2047	66.7053	1679.19
3.69444	0.125693	7.09837	80.0017	806.408	21.2046	66.7055	1679.19
3.70139	0.125694	7.09822	80.002	806.402	21.2046	66.7058	1679.19
3.70833	0.125695	7.09807	80.0024	806.397	21.2045	66.706	1679.19
3.71528	0.125696	7.09792	80.0027	806.392	21.2045	66.7062	1679.19
3.72222	0.125696	7.09777	80.003	806.388	21.2044	66.7064	1679.19
3.72917	0.125697	7.09763	80.0033	806.383	21.2044	66.7067	1679.19
3.73611	0.125698	7.09748	80.0036	806.378	21.2043	66.7069	1679.19
3.74306	0.125699	7.09734	80.0039	806.373	21.2043	66.7071	1679.2
3.75	0.1257	7.09721	80.0042	806.369	21.2043	66.7073	1679.2
3.75694	0.125701	7.09707	80.0046	806.364	21.2042	66.7075	1679.2
3.76389	0.125702	7.09693	80.0049	806.36	21.2042	66.7077	1679.2
3.77083	0.125703	7.0968	80.0051	806.356	21.2041	66.708	1679.2
3.77778	0.125704	7.09667	80.0054	806.351	21.2041	66.7082	1679.2
3.78472	0.125704	7.09654	80.0057	806.347	21.204	66.7084	1679.2
3.79167	0.125705	7.09641	80.006	806.343	21.204	66.7086	1679.2
3.79861	0.125706	7.09628	80.0063	806.339	21.204	66.7088	1679.2
3.80556	0.125707	7.09616	80.0066	806.335	21.2039	66.709	1679.2
3.8125	0.125708	7.09604	80.0069	806.331	21.2039	66.7091	1679.21
3.81944	0.125708	7.09592	80.0071	806.327	21.2039	66.7093	1679.21
3.82639	0.125709	7.0958	80.0074	806.323	21.2038	66.7095	1679.21
3.83333	0.12571	7.09568	80.0077	806.319	21.2038	66.7097	1679.21
3.84028	0.125711	7.09556	80.008	806.315	21.2037	66.7099	1679.21
3.84722	0.125712	7.09545	80.0082	806.312	21.2037	66.7101	1679.21
3.85417	0.125712	7.09533	80.0085	806.308	21.2037	66.7103	1679.21
3.86111	0.125713	7.09522	80.0088	806.304	21.2036	66.7104	1679.21
3.86806	0.125714	7.09511	80.009	806.301	21.2036	66.7106	1679.21
3.875	0.125715	7.095	80.0093	806.298	21.2036	66.7108	1679.21
3.88194	0.125715	7.09489	80.0095	806.294	21.2035	66.711	1679.21
3.88889	0.125716	7.09479	80.0098	806.291	21.2035	66.7111	1679.21
3.89583	0.125717	7.09468	80.01	806.287	21.2035	66.7113	1679.22
3.90278	0.125717	7.09458	80.0103	806.284	21.2034	66.7115	1679.22
3.90972	0.125718	7.09448	80.0105	806.281	21.2034	66.7116	1679.22
3.91667	0.125719	7.09438	80.0107	806.278	21.2034	66.7118	1679.22
3.92361	0.125719	7.09428	80.011	806.275	21.2033	66.7119	1679.22
3.93056	0.12572	7.09418	80.0112	806.272	21.2033	66.7121	1679.22
3.9375	0.125721	7.09408	80.0114	806.269	21.2033	66.7123	1679.22
3.94444	0.125721	7.09399	80.0117	806.266	21.2033	66.7124	1679.22
3.95139	0.125722	7.09389	80.0119	806.263	21.2032	66.7126	1679.22
3.95833	0.125723	7.0938	80.0121	806.26	21.2032	66.7127	1679.22
3.96528	0.125723	7.09371	80.0123	806.257	21.2032	66.7129	1679.22
3.97222	0.125724	7.09362	80.0126	806.254	21.2031	66.713	1679.22
3.97917	0.125725	7.09353	80.0128	806.252	21.2031	66.7132	1679.23
3.98611	0.125725	7.09344	80.013	806.249	21.2031	66.7133	1679.23
3.99306	0.125726	7.09336	80.0132	806.246	21.2031	66.7134	1679.23
4	0.125726	7.09327	80.0134	806.244	21.203	66.7136	1679.23
